  # energy grid [eV]     epsr     epsi
       0.001000      -0.121139      -0.000006
       0.017693      -0.121344      -0.000049
       0.034386      -0.121359      -0.000093
       0.051078      -0.121384      -0.000136
       0.067771      -0.121418      -0.000180
       0.084464      -0.121462      -0.000223
       0.101157      -0.121516      -0.000267
       0.117850      -0.121580      -0.000311
       0.134543      -0.121653      -0.000355
       0.151235      -0.121736      -0.000400
       0.167928      -0.121829      -0.000444
       0.184621      -0.121932      -0.000489
       0.201314      -0.122044      -0.000534
       0.218007      -0.122167      -0.000580
       0.234699      -0.122300      -0.000625
       0.251392      -0.122443      -0.000671
       0.268085      -0.122597      -0.000718
       0.284778      -0.122760      -0.000764
       0.301471      -0.122935      -0.000812
       0.318164      -0.123119      -0.000859
       0.334856      -0.123314      -0.000908
       0.351549      -0.123520      -0.000956
       0.368242      -0.123737      -0.001006
       0.384935      -0.123965      -0.001056
       0.401628      -0.124204      -0.001106
       0.418321      -0.124455      -0.001157
       0.435013      -0.124716      -0.001209
       0.451706      -0.124990      -0.001262
       0.468399      -0.125275      -0.001315
       0.485092      -0.125572      -0.001370
       0.501785      -0.125881      -0.001425
       0.518477      -0.126203      -0.001481
       0.535170      -0.126536      -0.001538
       0.551863      -0.126883      -0.001596
       0.568556      -0.127243      -0.001655
       0.585249      -0.127616      -0.001715
       0.601942      -0.128002      -0.001777
       0.618634      -0.128402      -0.001839
       0.635327      -0.128816      -0.001903
       0.652020      -0.129245      -0.001968
       0.668713      -0.129688      -0.002035
       0.685406      -0.130146      -0.002103
       0.702098      -0.130619      -0.002173
       0.718791      -0.131108      -0.002244
       0.735484      -0.131612      -0.002318
       0.752177      -0.132134      -0.002393
       0.768870      -0.132672      -0.002470
       0.785563      -0.133227      -0.002549
       0.802255      -0.133800      -0.002630
       0.818948      -0.134391      -0.002713
       0.835641      -0.135000      -0.002799
       0.852334      -0.135629      -0.002887
       0.869027      -0.136278      -0.002978
       0.885720      -0.136947      -0.003072
       0.902412      -0.137637      -0.003168
       0.919105      -0.138348      -0.003268
       0.935798      -0.139082      -0.003371
       0.952491      -0.139839      -0.003477
       0.969184      -0.140620      -0.003588
       0.985876      -0.141425      -0.003702
       1.002569      -0.142256      -0.003820
       1.019262      -0.143114      -0.003943
       1.035955      -0.143998      -0.004070
       1.052648      -0.144912      -0.004203
       1.069341      -0.145855      -0.004340
       1.086033      -0.146829      -0.004484
       1.102726      -0.147834      -0.004633
       1.119419      -0.148874      -0.004789
       1.136112      -0.149948      -0.004952
       1.152805      -0.151058      -0.005123
       1.169497      -0.152207      -0.005302
       1.186190      -0.153395      -0.005489
       1.202883      -0.154625      -0.005686
       1.219576      -0.155899      -0.005893
       1.236269      -0.157219      -0.006111
       1.252962      -0.158587      -0.006340
       1.269654      -0.160007      -0.006583
       1.286347      -0.161480      -0.006840
       1.303040      -0.163010      -0.007112
       1.319733      -0.164601      -0.007402
       1.336426      -0.166255      -0.007710
       1.353119      -0.167977      -0.008038
       1.369811      -0.169772      -0.008389
       1.386504      -0.171643      -0.008766
       1.403197      -0.173597      -0.009170
       1.419890      -0.175639      -0.009605
       1.436583      -0.177776      -0.010076
       1.453275      -0.180015      -0.010586
       1.469968      -0.182363      -0.011141
       1.486661      -0.184830      -0.011747
       1.503354      -0.187426      -0.012412
       1.520047      -0.190163      -0.013144
       1.536740      -0.193051      -0.013953
       1.553432      -0.196107      -0.014854
       1.570125      -0.199344      -0.015863
       1.586818      -0.202783      -0.016999
       1.603511      -0.206440      -0.018289
       1.620204      -0.210339      -0.019766
       1.636896      -0.214500      -0.021471
       1.653589      -0.218946      -0.023461
       1.670282      -0.223692      -0.025809
       1.686975      -0.228743      -0.028611
       1.703668      -0.234078      -0.031991
       1.720361      -0.239622      -0.036100
       1.737053      -0.245204      -0.041096
       1.753746      -0.250506      -0.047070
       1.770439      -0.255059      -0.053868
       1.787132      -0.258462      -0.060845
       1.803825      -0.260982      -0.066843
       1.820518      -0.264155      -0.070974
       1.837210      -0.270319      -0.073911
       1.853903      -0.280993      -0.078253
       1.870596      -0.295664      -0.087244
       1.887289      -0.312351      -0.103374
       1.903982      -0.328412      -0.128678
       1.920674      -0.339511      -0.165022
       1.937367      -0.338598      -0.211909
       1.954060      -0.318110      -0.263318
       1.970753      -0.275258      -0.307494
       1.987446      -0.216438      -0.332347
       2.004139      -0.154499      -0.333508
       2.020831      -0.099880      -0.315626
       2.037524      -0.056304      -0.285876
       2.054217      -0.023435      -0.249066
       2.070910      -0.000351      -0.206929
       2.087603       0.011519      -0.159503
       2.104295       0.007637      -0.109575
       2.120988      -0.014257      -0.065848
       2.137681      -0.048139      -0.038021
       2.154374      -0.082022      -0.028297
       2.171067      -0.107218      -0.029660
       2.187760      -0.123488      -0.033561
       2.204452      -0.134520      -0.036089
       2.221145      -0.143121      -0.036502
       2.237838      -0.151106      -0.034664
       2.254531      -0.160271      -0.030786
       2.271224      -0.172515      -0.026011
       2.287917      -0.188970      -0.023181
       2.304609      -0.207674      -0.025878
       2.321302      -0.223917      -0.034399
       2.337995      -0.235164      -0.044982
       2.354688      -0.242866      -0.054339
       2.371381      -0.249261      -0.061966
       2.388073      -0.255201      -0.068445
       2.404766      -0.260708      -0.073714
       2.421459      -0.266360      -0.076802
       2.438152      -0.274412      -0.077048
       2.454845      -0.287942      -0.076182
       2.471538      -0.308082      -0.078483
       2.488230      -0.332369      -0.088068
       2.504923      -0.356473      -0.106009
       2.521616      -0.377464      -0.130600
       2.538309      -0.394754      -0.160078
       2.555002      -0.408540      -0.194137
       2.571694      -0.418386      -0.233955
       2.588387      -0.421171      -0.281560
       2.605080      -0.410004      -0.335658
       2.621773      -0.379613      -0.387825
       2.638466      -0.333139      -0.427252
       2.655159      -0.279712      -0.449320
       2.671851      -0.226337      -0.455702
       2.688544      -0.176742      -0.448464
       2.705237      -0.134949      -0.429772
       2.721930      -0.103929      -0.404381
       2.738623      -0.083026      -0.377420
       2.755316      -0.069675      -0.351660
       2.772008      -0.061596      -0.328097
       2.788701      -0.056842      -0.307310
       2.805394      -0.052462      -0.289267
       2.822087      -0.045088      -0.270568
       2.838780      -0.035890      -0.244498
       2.855472      -0.032275      -0.207360
       2.872165      -0.042278      -0.162125
       2.888858      -0.070400      -0.115486
       2.905551      -0.117657      -0.075426
       2.922244      -0.180791      -0.050143
       2.938937      -0.252050      -0.044262
       2.955629      -0.324320      -0.055941
       2.972322      -0.396561      -0.081285
       2.989015      -0.471921      -0.121238
       3.005708      -0.551130      -0.183709
       3.022401      -0.625727      -0.279955
       3.039093      -0.675478      -0.414881
       3.055786      -0.676117      -0.576864
       3.072479      -0.613997      -0.737470
       3.089172      -0.497171      -0.863306
       3.105865      -0.353369      -0.934270
       3.122558      -0.212718      -0.952815
       3.139250      -0.092610      -0.934472
       3.155943       0.001628      -0.894900
       3.172636       0.070412      -0.845929
       3.189329       0.116223      -0.796835
       3.206022       0.144444      -0.756149
       3.222715       0.165165      -0.728430
       3.239407       0.188740      -0.709926
       3.256100       0.218405      -0.690752
       3.272793       0.247375      -0.663330
       3.289486       0.265297      -0.630759
       3.306179       0.270240      -0.604849
       3.322871       0.272200      -0.593457
       3.339564       0.282675      -0.592255
       3.356257       0.303995      -0.590997
       3.372950       0.331037      -0.583376
       3.389643       0.357141      -0.568731
       3.406336       0.377006      -0.551984
       3.423028       0.392531      -0.542226
       3.439721       0.415238      -0.542855
       3.456414       0.455790      -0.544243
       3.473107       0.512849      -0.530863
       3.489800       0.573825      -0.493005
       3.506492       0.623286      -0.432803
       3.523185       0.653084      -0.361587
       3.539878       0.665303      -0.289792
       3.556571       0.665177      -0.220655
       3.573264       0.653993      -0.153865
       3.589957       0.630576      -0.092037
       3.606649       0.597024      -0.040291
       3.623342       0.559223      -0.001117
       3.640035       0.522858       0.027288
       3.656728       0.491079       0.049167
       3.673421       0.463830       0.069593
       3.690114       0.437232       0.092109
       3.706806       0.405991       0.115332
       3.723499       0.368773       0.134036
       3.740192       0.328729       0.144849
       3.756885       0.288890       0.147573
       3.773578       0.251357       0.141961
       3.790270       0.219986       0.128233
       3.806963       0.198865       0.110470
       3.823656       0.187649       0.095263
       3.840349       0.181565       0.086494
       3.857042       0.175734       0.083718
       3.873735       0.167632       0.084501
       3.890427       0.156677       0.086537
       3.907120       0.143213       0.088205
       3.923813       0.128065       0.088643
       3.940506       0.111745       0.088081
       3.957199       0.093102       0.086605
       3.973891       0.070777       0.081670
       3.990584       0.046874       0.069340
       4.007277       0.026584       0.048757
       4.023970       0.013869       0.023055
       4.040663       0.009555      -0.003741
       4.057356       0.012851      -0.028697
       4.074048       0.022592      -0.049398
       4.090741       0.036482      -0.063405
       4.107434       0.050438      -0.069865
       4.124127       0.060665      -0.071089
       4.140820       0.066190      -0.071046
       4.157513       0.068681      -0.072765
       4.174205       0.070883      -0.077372
       4.190898       0.075548      -0.084140
       4.207591       0.084499      -0.090551
       4.224284       0.097239      -0.093030
       4.240977       0.110401      -0.089251
       4.257669       0.119880      -0.080285
       4.274362       0.123878      -0.069594
       4.291055       0.123292      -0.060264
       4.307748       0.120098      -0.053799
       4.324441       0.116286      -0.050551
       4.341134       0.113832      -0.049991
       4.357826       0.114285      -0.050232
       4.374519       0.117259      -0.048442
       4.391212       0.120110      -0.043140
       4.407905       0.120240      -0.035502
       4.424598       0.116976      -0.027827
       4.441290       0.111120      -0.021850
       4.457983       0.104048      -0.018424
       4.474676       0.097336      -0.017536
       4.491369       0.092294      -0.018120
       4.508062       0.089054      -0.018325
       4.524755       0.086104      -0.016872
       4.541447       0.081523      -0.014321
       4.558140       0.074670      -0.012467
       4.574833       0.066364      -0.012873
       4.591526       0.058168      -0.016162
       4.608219       0.051733      -0.021891
       4.624912       0.048211      -0.028583
       4.641604       0.047483      -0.034107
       4.658297       0.047729      -0.036925
       4.674990       0.046525      -0.037469
       4.691683       0.042728      -0.037752
       4.708376       0.036942      -0.039722
       4.725068       0.030706      -0.044303
       4.741761       0.025700      -0.051258
       4.758454       0.023078      -0.059240
       4.775147       0.022571      -0.066307
       4.791840       0.022272      -0.071480
       4.808533       0.020233      -0.075882
       4.825225       0.016223      -0.081745
       4.841918       0.011691      -0.090696
       4.858611       0.008761      -0.102978
       4.875304       0.009199      -0.117414
       4.891997       0.013463      -0.132072
       4.908689       0.020684      -0.145702
       4.925382       0.030197      -0.158357
       4.942075       0.042536      -0.169968
       4.958768       0.058181      -0.179026
       4.975461       0.075825      -0.183543
       4.992154       0.092786      -0.183146
       5.008846       0.107120      -0.179430
       5.025539       0.118610      -0.174253
       5.042232       0.127678      -0.168619
       5.058925       0.134685      -0.163293
       5.075618       0.140401      -0.158856
       5.092311       0.145560      -0.155158
       5.109003       0.150235      -0.152000
       5.125696       0.154618      -0.149694
       5.142389       0.159437      -0.148213
       5.159082       0.165022      -0.146897
       5.175775       0.171127      -0.145394
       5.192467       0.177780      -0.143666
       5.209160       0.185022      -0.141283
       5.225853       0.192314      -0.137988
       5.242546       0.199367      -0.134229
       5.259239       0.206630      -0.130152
       5.275932       0.214230      -0.125164
       5.292624       0.221574      -0.118934
       5.309317       0.228187      -0.111712
       5.326010       0.233899      -0.103783
       5.342703       0.238644      -0.095448
       5.359396       0.242641      -0.086890
       5.376088       0.246006      -0.077801
       5.392781       0.248231      -0.067833
       5.409474       0.248400      -0.057156
       5.426167       0.245534      -0.046756
       5.442860       0.239463      -0.038616
       5.459553       0.231701      -0.034600
       5.476245       0.224607      -0.035063
       5.492938       0.219992      -0.039091
       5.509631       0.218903      -0.045404
       5.526324       0.221949      -0.052569
       5.543017       0.229159      -0.058880
       5.559710       0.239605      -0.062816
       5.576402       0.251796      -0.063824
       5.593095       0.264707      -0.062345
       5.609788       0.278262      -0.058825
       5.626481       0.292595      -0.052923
       5.643174       0.307083      -0.043945
       5.659866       0.320468      -0.031897
       5.676559       0.331859      -0.017709
       5.693252       0.341315      -0.002479
       5.709945       0.349486       0.013349
       5.726638       0.356809       0.030029
       5.743331       0.363176       0.048008
       5.760023       0.367964       0.067490
       5.776716       0.370365       0.087965
       5.793409       0.370261       0.108161
       5.810102       0.368878       0.127148
       5.826795       0.367742       0.145643
       5.843487       0.366987       0.165345
       5.860180       0.365415       0.187378
       5.876873       0.361416       0.211798
       5.893566       0.353697       0.237693
       5.910259       0.341738       0.263750
       5.926952       0.325593       0.288788
       5.943644       0.305629       0.311869
       5.960337       0.282275       0.332297
       5.977030       0.256016       0.349327
       5.993723       0.227725       0.362386
       6.010416       0.198161       0.371452
       6.027109       0.167508       0.376372
       6.043801       0.136078       0.376183
       6.060494       0.105352       0.369548
       6.077187       0.078208       0.356057
       6.093880       0.057933       0.337311
       6.110573       0.046662       0.317071
       6.127265       0.043649       0.300148
       6.143958       0.045062       0.289534
       6.160651       0.046822       0.284739
       6.177344       0.046993       0.283493
       6.194037       0.045601       0.283757
       6.210730       0.043763       0.284661
       6.227422       0.042394       0.286814
       6.244115       0.041202       0.291362
       6.260808       0.038914       0.298868
       6.277501       0.034088       0.308879
       6.294194       0.025832       0.320242
       6.310886       0.013910       0.331660
       6.327579      -0.001478       0.341995
       6.344272      -0.020011       0.350055
       6.360965      -0.040461       0.354111
       6.377658      -0.059416       0.353457
       6.394351      -0.072926       0.351352
       6.411043      -0.081440       0.354636
       6.427736      -0.091921       0.367735
       6.444429      -0.112712       0.387953
       6.461122      -0.147766       0.408134
       6.477815      -0.196915       0.421138
       6.494508      -0.257680       0.420041
       6.511200      -0.323650       0.397995
       6.527893      -0.383232       0.352301
       6.544586      -0.424321       0.288995
       6.561279      -0.441879       0.220521
       6.577972      -0.439456       0.157966
       6.594664      -0.424220       0.106874
       6.611357      -0.402943       0.068640
       6.628050      -0.381529       0.042185
       6.644743      -0.364329       0.023888
       6.661436      -0.352386       0.009050
       6.678129      -0.344189      -0.005304
       6.694821      -0.338190      -0.020096
       6.711514      -0.333588      -0.035696
       6.728207      -0.329788      -0.052407
       6.744900      -0.326494      -0.070511
       6.761593      -0.323381      -0.090892
       6.778285      -0.318999      -0.114749
       6.794978      -0.310484      -0.142122
       6.811671      -0.295024      -0.170482
       6.828364      -0.272412      -0.195495
       6.845057      -0.245508      -0.214023
       6.861750      -0.217776      -0.225571
       6.878442      -0.191827      -0.230865
       6.895135      -0.170201      -0.231351
       6.911828      -0.154841      -0.230270
       6.928521      -0.145118      -0.232060
       6.945214      -0.137297      -0.239852
       6.961907      -0.126440      -0.253405
       6.978599      -0.109174      -0.269333
       6.995292      -0.085313      -0.283182
       7.011985      -0.057509      -0.292021
       7.028678      -0.028887      -0.295872
       7.045371      -0.000635      -0.296414
       7.062063       0.027979      -0.294479
       7.078756       0.057463      -0.289028
       7.095449       0.086429      -0.278937
       7.112142       0.113092      -0.264886
       7.128835       0.136975      -0.248248
       7.145528       0.158328      -0.229857
       7.162220       0.177459      -0.210148
       7.178913       0.194754      -0.189392
       7.195606       0.210791      -0.167496
       7.212299       0.225970      -0.143699
