  # energy grid [eV]     epsr     epsi
       0.001000       0.081890       0.000002
       0.017693       0.081912       0.000059
       0.034386       0.081932       0.000117
       0.051078       0.081965       0.000174
       0.067771       0.082010       0.000232
       0.084464       0.082068       0.000290
       0.101157       0.082139       0.000348
       0.117850       0.082223       0.000406
       0.134543       0.082320       0.000465
       0.151235       0.082430       0.000524
       0.167928       0.082553       0.000584
       0.184621       0.082689       0.000644
       0.201314       0.082839       0.000705
       0.218007       0.083002       0.000766
       0.234699       0.083179       0.000828
       0.251392       0.083369       0.000890
       0.268085       0.083574       0.000954
       0.284778       0.083792       0.001018
       0.301471       0.084025       0.001083
       0.318164       0.084272       0.001149
       0.334856       0.084534       0.001216
       0.351549       0.084811       0.001284
       0.368242       0.085104       0.001354
       0.384935       0.085411       0.001424
       0.401628       0.085735       0.001496
       0.418321       0.086074       0.001569
       0.435013       0.086430       0.001644
       0.451706       0.086802       0.001720
       0.468399       0.087192       0.001798
       0.485092       0.087598       0.001878
       0.501785       0.088023       0.001959
       0.518477       0.088466       0.002042
       0.535170       0.088927       0.002128
       0.551863       0.089407       0.002215
       0.568556       0.089907       0.002305
       0.585249       0.090427       0.002397
       0.601942       0.090968       0.002492
       0.618634       0.091530       0.002589
       0.635327       0.092113       0.002689
       0.652020       0.092719       0.002793
       0.668713       0.093348       0.002899
       0.685406       0.094001       0.003008
       0.702098       0.094678       0.003121
       0.718791       0.095381       0.003238
       0.735484       0.096109       0.003358
       0.752177       0.096865       0.003483
       0.768870       0.097648       0.003612
       0.785563       0.098460       0.003745
       0.802255       0.099302       0.003884
       0.818948       0.100175       0.004027
       0.835641       0.101080       0.004176
       0.852334       0.102018       0.004330
       0.869027       0.102991       0.004491
       0.885720       0.104000       0.004658
       0.902412       0.105046       0.004832
       0.919105       0.106131       0.005013
       0.935798       0.107256       0.005202
       0.952491       0.108423       0.005399
       0.969184       0.109635       0.005604
       0.985876       0.110892       0.005819
       1.002569       0.112197       0.006044
       1.019262       0.113553       0.006279
       1.035955       0.114961       0.006525
       1.052648       0.116423       0.006784
       1.069341       0.117944       0.007055
       1.086033       0.119525       0.007340
       1.102726       0.121169       0.007640
       1.119419       0.122881       0.007956
       1.136112       0.124662       0.008288
       1.152805       0.126518       0.008639
       1.169497       0.128451       0.009010
       1.186190       0.130467       0.009402
       1.202883       0.132570       0.009817
       1.219576       0.134765       0.010257
       1.236269       0.137058       0.010724
       1.252962       0.139454       0.011220
       1.269654       0.141960       0.011748
       1.286347       0.144583       0.012311
       1.303040       0.147330       0.012911
       1.319733       0.150209       0.013553
       1.336426       0.153230       0.014241
       1.353119       0.156403       0.014978
       1.369811       0.159737       0.015769
       1.386504       0.163245       0.016622
       1.403197       0.166939       0.017541
       1.419890       0.170834       0.018534
       1.436583       0.174946       0.019610
       1.453275       0.179292       0.020777
       1.469968       0.183890       0.022047
       1.486661       0.188763       0.023432
       1.503354       0.193934       0.024946
       1.520047       0.199430       0.026607
       1.536740       0.205281       0.028434
       1.553432       0.211520       0.030450
       1.570125       0.218185       0.032681
       1.586818       0.225319       0.035161
       1.603511       0.232970       0.037926
       1.620204       0.241194       0.041022
       1.636896       0.250054       0.044505
       1.653589       0.259621       0.048440
       1.670282       0.269981       0.052909
       1.686975       0.281231       0.058010
       1.703668       0.293485       0.063870
       1.720361       0.306883       0.070643
       1.737053       0.321589       0.078533
       1.753746       0.337811       0.087814
       1.770439       0.355795       0.098868
       1.787132       0.375816       0.112258
       1.803825       0.398108       0.128795
       1.820518       0.422758       0.149573
       1.837210       0.449621       0.175965
       1.853903       0.478245       0.209682
       1.870596       0.507676       0.252905
       1.887289       0.536008       0.308421
       1.903982       0.559470       0.379513
       1.920674       0.571076       0.468930
       1.937367       0.559710       0.576021
       1.954060       0.512104       0.691975
       1.970753       0.420678       0.796892
       1.987446       0.293788       0.866535
       2.004139       0.154998       0.887749
       2.020831       0.028672       0.865368
       2.037524      -0.071045       0.814796
       2.054217      -0.141396       0.753147
       2.070910      -0.188766       0.692668
       2.087603      -0.221291       0.636368
       2.104295      -0.241021       0.583793
       2.120988      -0.248495       0.539412
       2.137681      -0.251053       0.507999
       2.154374      -0.258192       0.485349
       2.171067      -0.270552       0.461606
       2.187760      -0.280630       0.433203
       2.204452      -0.283664       0.405031
       2.221145      -0.281922       0.382421
       2.237838      -0.280298       0.366024
       2.254531      -0.281646       0.352963
       2.271224      -0.285681       0.340151
       2.287917      -0.290815       0.326496
       2.304609      -0.296519       0.311876
       2.321302      -0.302071       0.295083
       2.337995      -0.304688       0.276044
       2.354688      -0.302735       0.257956
       2.371381      -0.298492       0.243705
       2.388073      -0.294978       0.232497
       2.404766      -0.292394       0.222089
       2.421459      -0.289130       0.211993
       2.438152      -0.284210       0.203895
       2.454845      -0.279205       0.200248
       2.471538      -0.278286       0.201254
       2.488230      -0.285159       0.202782
       2.504923      -0.298778       0.197920
       2.521616      -0.311966       0.182651
       2.538309      -0.316708       0.160531
       2.555002      -0.310885       0.139611
       2.571694      -0.298157       0.126136
       2.588387      -0.284463       0.122611
       2.605080      -0.276093       0.127649
       2.621773      -0.276925       0.136047
       2.638466      -0.286269       0.142133
       2.655159      -0.301238       0.143051
       2.671851      -0.319667       0.137521
       2.688544      -0.339143       0.123921
       2.705237      -0.355577       0.101745
       2.721930      -0.365012       0.073328
       2.738623      -0.365714       0.042444
       2.755316      -0.357545       0.012524
       2.772008      -0.340975      -0.012857
       2.788701      -0.318505      -0.029209
       2.805394      -0.296762      -0.033750
       2.822087      -0.283830      -0.030108
       2.838780      -0.282217      -0.027600
       2.855472      -0.286289      -0.033876
       2.872165      -0.287324      -0.049540
       2.888858      -0.279441      -0.069286
       2.905551      -0.262003      -0.085609
       2.922244      -0.239836      -0.092509
       2.938937      -0.221108      -0.089450
       2.955629      -0.211538      -0.082913
       2.972322      -0.208759      -0.081354
       2.989015      -0.204516      -0.086819
       3.005708      -0.193422      -0.093390
       3.022401      -0.177836      -0.093862
       3.039093      -0.164974      -0.086503
       3.055786      -0.160243      -0.076443
       3.072479      -0.162306      -0.071067
       3.089172      -0.164337      -0.073155
       3.105865      -0.160729      -0.078607
       3.122558      -0.152051      -0.081099
       3.139250      -0.143528      -0.078270
       3.155943      -0.139148      -0.073363
       3.172636      -0.137643      -0.070800
       3.189329      -0.134830      -0.070875
       3.206022      -0.129153      -0.069902
       3.222715      -0.123577      -0.065063
       3.239407      -0.122285      -0.058178
       3.256100      -0.125226      -0.054705
       3.272793      -0.126188      -0.057103
       3.289486      -0.119531      -0.059663
       3.306179      -0.108358      -0.053666
       3.322871      -0.102632      -0.037502
       3.339564      -0.108970      -0.018938
       3.356257      -0.124844      -0.006933
       3.372950      -0.143281      -0.004402
       3.389643      -0.158885      -0.009422
       3.406336      -0.168557      -0.018011
       3.423028      -0.172438      -0.024438
       3.439721      -0.175862      -0.024702
       3.456414      -0.185617      -0.021013
       3.473107      -0.204333      -0.020111
       3.489800      -0.228950      -0.028738
       3.506492      -0.252502      -0.049512
       3.523185      -0.268795      -0.079804
       3.539878      -0.275183      -0.114956
       3.556571      -0.271429      -0.150999
       3.573264      -0.257957      -0.184646
       3.589957      -0.236084      -0.212017
       3.606649      -0.210185      -0.229532
       3.623342      -0.186972      -0.237869
       3.640035      -0.170292      -0.242651
       3.656728      -0.158564      -0.249773
       3.673421      -0.147223      -0.261834
       3.690114      -0.131562      -0.277923
       3.706806      -0.108573      -0.294257
       3.723499      -0.078835      -0.306051
       3.740192      -0.045646      -0.311110
       3.756885      -0.010813      -0.309913
       3.773578       0.025730      -0.301225
       3.790270       0.061032      -0.281748
       3.806963       0.088364      -0.251816
       3.823656       0.103142      -0.217295
       3.840349       0.106092      -0.184822
       3.857042       0.100787      -0.158216
       3.873735       0.090884      -0.138748
       3.890427       0.079346      -0.126419
       3.907120       0.068645      -0.120641
       3.923813       0.061053      -0.120256
       3.940506       0.058522      -0.123198
       3.957199       0.061985      -0.126379
       3.973891       0.070541      -0.126311
       3.990584       0.081138      -0.120469
       4.007277       0.089628      -0.108948
       4.023970       0.093227      -0.094580
       4.040663       0.091945      -0.080807
       4.057356       0.087697      -0.069600
       4.074048       0.082488      -0.061016
       4.090741       0.077217      -0.054173
       4.107434       0.071805      -0.048511
       4.124127       0.066160      -0.044176
       4.140820       0.060742      -0.041384
       4.157513       0.056179      -0.039818
       4.174205       0.052640      -0.038789
       4.190898       0.049774      -0.037855
       4.207591       0.047244      -0.037109
       4.224284       0.045181      -0.036788
       4.240977       0.043989      -0.036730
       4.257669       0.043806      -0.036362
       4.274362       0.044285      -0.035118
       4.291055       0.044809      -0.032764
       4.307748       0.044730      -0.029419
       4.324441       0.043514      -0.025561
       4.341134       0.041027      -0.021963
       4.357826       0.037706      -0.019259
       4.374519       0.034186      -0.017563
       4.391212       0.030868      -0.016616
       4.407905       0.027841      -0.016117
       4.424598       0.025039      -0.015898
       4.441290       0.022401      -0.015909
       4.457983       0.019901      -0.016097
       4.474676       0.017436      -0.016393
       4.491369       0.014800      -0.016871
       4.508062       0.011884      -0.017834
       4.524755       0.008848      -0.019670
       4.541447       0.006129      -0.022643
       4.558140       0.004310      -0.026744
       4.574833       0.003959      -0.031675
       4.591526       0.005551      -0.036871
       4.608219       0.009343      -0.041441
       4.624912       0.015049      -0.044220
       4.641604       0.021529      -0.044281
       4.658297       0.027185      -0.041710
       4.674990       0.031006      -0.037608
       4.691683       0.033001      -0.033151
       4.708376       0.033659      -0.028965
       4.725068       0.033418      -0.025228
       4.741761       0.032513      -0.021970
       4.758454       0.031080      -0.019274
       4.775147       0.029340      -0.017275
       4.791840       0.027637      -0.015968
       4.808533       0.026242      -0.015122
       4.825225       0.025201      -0.014436
       4.841918       0.024407      -0.013714
       4.858611       0.023724      -0.012867
       4.875304       0.023024      -0.011899
       4.891997       0.022258      -0.010864
       4.908689       0.021437      -0.009760
       4.925382       0.020504      -0.008526
       4.942075       0.019323      -0.007174
       4.958768       0.017799      -0.005819
       4.975461       0.015925      -0.004590
       4.992154       0.013739      -0.003585
       5.008846       0.011293      -0.002857
       5.025539       0.008597      -0.002444
       5.042232       0.005647      -0.002449
       5.058925       0.002525      -0.003051
       5.075618      -0.000499      -0.004394
       5.092311      -0.003028      -0.006358
       5.109003      -0.004880      -0.008504
       5.125696      -0.006299      -0.010427
       5.142389      -0.007688      -0.012099
       5.159082      -0.009250      -0.013744
       5.175775      -0.010960      -0.015568
       5.192467      -0.012724      -0.017632
       5.209160      -0.014525      -0.019903
       5.225853      -0.016468      -0.022398
       5.242546      -0.018673      -0.025295
       5.259239      -0.021104      -0.028929
       5.275932      -0.023420      -0.033584
       5.292624      -0.025144      -0.039187
       5.309317      -0.026100      -0.045351
       5.326010      -0.026551      -0.051837
       5.342703      -0.026872      -0.058895
       5.359396      -0.027091      -0.067257
       5.376088      -0.026512      -0.077788
       5.392781      -0.023626      -0.090900
       5.409474      -0.016464      -0.105905
       5.426167      -0.003507      -0.120626
       5.442860       0.014998      -0.131925
       5.459553       0.036602      -0.137599
       5.476245       0.058437      -0.137888
       5.492938       0.079396      -0.134370
       5.509631       0.099798      -0.127720
       5.526324       0.119523      -0.117539
       5.543017       0.137660      -0.103772
       5.559710       0.153664      -0.087054
       5.576402       0.167702      -0.067598
       5.593095       0.179468      -0.044697
       5.609788       0.187417      -0.017864
       5.626481       0.189493       0.012168
       5.643174       0.184049       0.043480
       5.659866       0.170403       0.073339
       5.676559       0.149180       0.098768
       5.693252       0.122327       0.117243
       5.709945       0.092762       0.127315
       5.726638       0.063696       0.129027
       5.743331       0.037754       0.123751
       5.760023       0.016597       0.113566
       5.776716       0.000883       0.100892
       5.793409      -0.009951       0.088074
       5.810102      -0.017549       0.076526
       5.826795      -0.023610       0.066196
       5.843487      -0.028850       0.056202
       5.860180      -0.032968       0.045869
       5.876873      -0.035281       0.035338
       5.893566      -0.035592       0.025486
       5.910259      -0.034633       0.017080
       5.926952      -0.033422       0.010003
       5.943644      -0.032411       0.003572
       5.960337      -0.031496      -0.002753
       5.977030      -0.030476      -0.009198
       5.993723      -0.029257      -0.015991
       6.010416      -0.027458      -0.023553
       6.027109      -0.024117      -0.031877
       6.043801      -0.018472      -0.039948
       6.060494      -0.010905      -0.046435
       6.077187      -0.002596      -0.050903
       6.093880       0.005734      -0.053884
       6.110573       0.014213      -0.055784
       6.127265       0.022992      -0.056342
       6.143958       0.031642      -0.055170
       6.160651       0.039426      -0.052346
       6.177344       0.045771      -0.048442
       6.194037       0.050563      -0.044315
       6.210730       0.054328      -0.040693
       6.227422       0.057919      -0.037631
       6.244115       0.061823      -0.034550
       6.260808       0.065897      -0.030740
       6.277501       0.069415      -0.025793
       6.294194       0.071389      -0.020098
       6.310886       0.071491      -0.014899
       6.327579       0.070591      -0.011215
       6.344272       0.069836      -0.008971
       6.360965       0.069742      -0.007543
       6.377658       0.070386      -0.006434
       6.394351       0.071723      -0.005238
       6.411043       0.073495      -0.003583
       6.427736       0.075241      -0.001378
       6.444429       0.076622       0.001105
       6.461122       0.077621       0.003502
       6.477815       0.078414       0.005573
       6.494508       0.079251       0.007180
       6.511200       0.080500       0.008298
       6.527893       0.082608       0.009199
       6.544586       0.085759       0.010560
       6.561279       0.089486       0.013122
       6.577972       0.092753       0.017008
       6.594664       0.094731       0.021352
       6.611357       0.095624       0.024824
       6.628050       0.096716       0.026622
       6.644743       0.099658       0.027188
       6.661436       0.105337       0.028125
       6.678129       0.113304       0.031119
       6.694821       0.122426       0.037024
       6.711514       0.131738       0.046034
       6.728207       0.140588       0.058258
       6.744900       0.148310       0.074065
       6.761593       0.153626       0.094041
       6.778285       0.154135       0.118139
       6.794978       0.146978       0.144280
       6.811671       0.131031       0.168040
       6.828364       0.108770       0.184862
       6.845057       0.085109       0.193190
       6.861750       0.064129       0.194942
       6.878442       0.047353       0.193316
       6.895135       0.034416       0.190938
       6.911828       0.023983       0.189495
       6.928521       0.014252       0.189384
       6.945214       0.004197       0.189712
       6.961907      -0.005836       0.189846
       6.978599      -0.015608       0.190380
       6.995292      -0.026135       0.191870
       7.011985      -0.038727       0.193546
       7.028678      -0.053645       0.193890
       7.045371      -0.070333       0.191789
       7.062063      -0.088191       0.186375
       7.078756      -0.106090       0.176485
       7.095449      -0.121599       0.161643
       7.112142      -0.132135       0.143454
       7.128835      -0.136946       0.124963
       7.145528      -0.137454       0.108605
       7.162220      -0.135802       0.094887
       7.178913      -0.133006       0.082893
       7.195606      -0.128535       0.072139
       7.212299      -0.121821       0.063721
